Column 1: Wavelength
Column 2: T1_REF
   376.859985  0.077922
   381.869995  0.066142
   386.880005  0.055511
   391.890015  0.047047
   396.890015  0.039757
   401.899994  0.034348
   406.910004  0.030345
   411.920013  0.027591
   416.929993  0.025627
   421.940002  0.024284
   426.950012  0.023341
   431.959991  0.022769
   436.959991  0.022339
   441.970001  0.022277
   446.980011  0.022385
   451.989990  0.022650
   457.000000  0.023348
   462.010010  0.024681
   467.019989  0.027414
   472.019989  0.032577
   477.029999  0.042247
   482.040009  0.058053
   487.049988  0.080569
   492.059998  0.104661
   497.070007  0.124409
   502.079987  0.135728
   507.089996  0.138889
   512.090027  0.136392
   517.099976  0.129982
   522.109985  0.122094
   527.119995  0.113128
   532.130005  0.103564
   537.140015  0.094405
   542.150024  0.086200
   547.150024  0.079009
   552.159973  0.071155
   557.169983  0.063556
   562.179993  0.056215
   567.190002  0.049410
   572.200012  0.043584
   577.210022  0.039227
   582.219971  0.036259
   587.219971  0.034514
   592.229980  0.033469
   597.239990  0.032712
   602.250000  0.031762
   607.260010  0.030357
   612.270020  0.028738
   617.280029  0.027224
   622.280029  0.026061
   627.289978  0.025740
   632.299988  0.026166
   637.309998  0.027772
   642.320007  0.030913
   647.330017  0.036979
   652.340027  0.048584
   657.349976  0.063664
   662.349976  0.083436
   667.359985  0.112804
   672.369995  0.149807
   677.380005  0.191025
   682.390015  0.234464
   687.400024  0.275495
   692.409973  0.315513
   697.409973  0.351738
   702.419983  0.383987
   707.429993  0.411296
   712.440002  0.434907
   717.450012  0.452993
   722.460022  0.472495
   727.469971  0.488467
   732.479980  0.503189
   737.479980  0.513834
   742.489990  0.522208
   747.500000  0.528321
   752.510010  0.532828
   757.520020  0.534080
   762.530029  0.539715
   767.539978  0.542017
   772.539978  0.542494
   777.549988  0.543653
   782.559998  0.544695
   787.570007  0.545611
   792.580017  0.546758
   797.590027  0.547575
   802.599976  0.548371
   807.609985  0.549177
   812.609985  0.549116
   817.619995  0.550348
   822.630005  0.551459
   827.640015  0.551949
   832.650024  0.553010
   837.659973  0.553832
   842.669983  0.554381
   847.669983  0.554620
   852.679993  0.555188
   857.690002  0.556076
   862.700012  0.556346
   867.710022  0.557281
   872.719971  0.557865
   877.729980  0.558275
   882.739990  0.558805
   887.739990  0.559353
   892.750000  0.559024
   897.760010  0.559095
   902.770020  0.560332
   907.780029  0.559439
   912.789978  0.560279
   917.799988  0.560745
   922.809998  0.560874
   927.809998  0.557394
   932.820007  0.553911
   937.830017  0.558185
   942.840027  0.555976
   947.849976  0.557480
   952.859985  0.555579
   957.869995  0.557088
   962.869995  0.555556
   967.880005  0.558182
   972.890015  0.554736
   977.900024  0.560300
   982.909973  0.554965
   987.919983  0.554404
   992.929993  0.560203
   997.940002  0.561499
  1002.940002  0.562427
  1007.950012  0.563403
  1012.960022  0.564120
  1017.969971  0.564922
  1022.979980  0.565994
  1027.989990  0.567058
  1033.000000  0.568106
  1038.000000  0.568854
  1043.010010  0.569496
  1048.020020  0.570130
  1053.030029  0.570827
  1058.040039  0.571555
  1063.050049  0.572095
  1068.060059  0.572603
  1073.069946  0.572795
  1078.069946  0.572889
  1083.079956  0.572975
  1088.089966  0.572654
  1093.099976  0.572014
  1098.109985  0.570891
  1103.119995  0.569346
  1108.130005  0.566995
  1113.130005  0.563707
  1118.140015  0.559519
  1123.150024  0.556391
  1128.160034  0.554524
  1133.170044  0.554943
  1138.180054  0.554014
  1143.189941  0.552118
  1148.199951  0.549997
  1153.199951  0.548719
  1158.209961  0.548082
  1163.219971  0.547533
  1168.229980  0.546741
  1173.239990  0.546608
  1178.250000  0.546787
  1183.260010  0.547483
  1188.260010  0.548560
  1193.270020  0.549638
  1198.280029  0.550514
  1203.290039  0.551457
  1208.300049  0.552563
  1213.310059  0.553817
  1218.319946  0.554884
  1223.329956  0.555790
  1228.329956  0.556623
  1233.339966  0.557576
  1238.349976  0.558302
  1243.359985  0.558826
  1248.369995  0.559029
  1253.380005  0.558841
  1258.390015  0.558688
  1263.390015  0.558600
  1268.400024  0.558510
  1273.410034  0.558290
  1278.420044  0.558137
  1283.430054  0.557767
  1288.439941  0.557416
  1293.449951  0.556315
  1298.459961  0.554779
  1303.459961  0.553059
  1308.469971  0.551266
  1313.479980  0.548875
  1318.489990  0.545755
  1323.500000  0.541838
  1328.510010  0.537822
  1333.520020  0.533734
  1338.520020  0.529740
  1343.530029  0.524952
  1448.719971  0.444808
  1453.719971  0.443329
  1458.729980  0.442096
  1463.739990  0.442503
  1468.750000  0.444401
  1473.760010  0.446591
  1478.770020  0.448297
  1483.780029  0.450419
  1488.780029  0.451750
  1493.790039  0.453001
  1498.800049  0.454446
  1503.810059  0.456173
  1508.819946  0.458082
  1513.829956  0.459968
  1518.839966  0.462052
  1523.849976  0.463932
  1528.849976  0.465899
  1533.859985  0.467760
  1538.869995  0.469710
  1543.880005  0.471486
  1548.890015  0.473149
  1553.900024  0.474897
  1558.910034  0.476590
  1563.910034  0.478101
  1568.920044  0.479545
  1573.930054  0.481120
  1578.939941  0.482557
  1583.949951  0.483734
  1588.959961  0.484855
  1593.969971  0.485787
  1598.979980  0.486564
  1603.979980  0.486946
  1608.989990  0.486855
  1614.000000  0.486654
  1619.010010  0.486488
  1624.020020  0.485737
  1629.030029  0.483951
  1634.040039  0.480140
  1639.040039  0.472015
  1644.050049  0.460451
  1649.060059  0.446731
  1654.069946  0.433375
  1659.079956  0.425919
  1664.089966  0.430200
  1669.099976  0.439653
  1674.109985  0.447839
  1679.109985  0.454294
  1684.119995  0.460397
  1689.130005  0.465692
  1694.140015  0.467878
  1699.150024  0.466754
  1704.160034  0.464950
  1709.170044  0.464142
  1714.170044  0.463380
  1719.180054  0.462650
  1724.189941  0.462434
  1729.199951  0.462826
  1734.209961  0.464354
  1739.219971  0.465942
  1744.229980  0.467449
  1749.239990  0.467569
  1754.239990  0.467163
  1759.250000  0.466574
  1764.260010  0.465734
  1769.270020  0.465260
  1774.280029  0.465593
  1779.290039  0.465819
  1784.300049  0.465428
  1789.300049  0.464637
  1794.310059  0.463679
  1799.319946  0.464065
  1959.599976  0.396469
  1964.609985  0.409267
  1969.619995  0.410438
  1974.630005  0.413690
  1979.630005  0.416900
  1984.640015  0.416474
  1989.650024  0.417153
  1994.660034  0.417293
  1999.670044  0.419040
  2004.680054  0.421182
  2009.689941  0.422601
  2014.699951  0.424872
  2019.699951  0.426621
  2024.709961  0.426672
  2029.719971  0.427776
  2034.729980  0.429247
  2039.739990  0.431006
  2044.750000  0.429344
  2049.760010  0.431043
  2054.760010  0.432595
  2059.770020  0.431020
  2064.780029  0.431682
  2069.790039  0.430703
  2074.800049  0.429994
  2079.810059  0.428342
  2084.820068  0.427899
  2089.830078  0.428414
  2094.830078  0.429106
  2099.840088  0.429148
  2104.850098  0.425893
  2109.860107  0.421192
  2114.870117  0.413403
  2119.879883  0.403684
  2124.889893  0.395992
  2129.889893  0.389324
  2134.899902  0.391693
  2139.909912  0.399944
  2144.919922  0.405740
  2149.929932  0.404173
  2154.939941  0.398964
  2159.949951  0.402373
  2164.959961  0.411007
  2169.959961  0.414386
  2174.969971  0.411950
  2179.979980  0.409031
  2184.989990  0.410774
  2190.000000  0.417064
  2195.010010  0.419103
  2200.020020  0.418832
  2205.020020  0.417616
  2210.030029  0.415398
  2215.040039  0.408160
  2220.050049  0.396365
  2225.060059  0.382532
  2230.070068  0.369385
  2235.080078  0.352843
  2240.090088  0.332432
  2245.090088  0.321718
  2250.100098  0.316392
  2255.110107  0.316860
  2260.120117  0.322576
  2265.129883  0.327420
  2270.139893  0.334570
  2275.149902  0.339579
  2280.149902  0.343375
  2285.159912  0.344796
  2290.169922  0.342271
  2295.179932  0.341697
  2300.189941  0.338116
  2305.199951  0.337085
  2310.209961  0.335775
  2315.219971  0.333152
  2320.219971  0.326900
  2325.229980  0.320183
  2330.239990  0.318674
  2335.250000  0.317976
  2340.260010  0.323585
  2345.270020  0.328833
  2350.280029  0.330133
  2355.280029  0.330515
  2360.290039  0.330362
  2365.300049  0.335413
  2370.310059  0.336468
  2375.320068  0.341060
  2380.330078  0.342533
  2385.340088  0.335409
  2390.350098  0.338437
  2395.350098  0.337160
  2400.360107  0.342023
  2405.370117  0.343096
  2410.379883  0.353819
  2415.389893  0.350233
  2420.399902  0.343288
  2425.409912  0.340946
  2430.409912  0.330861
  2435.419922  0.315247
  2440.429932  0.303417
  2445.439941  0.302685
  2450.449951  0.323392
  2455.459961  0.325126
  2460.469971  0.345085
  2465.479980  0.349288
  2470.479980  0.360168
  2475.489990  0.368520
  2480.500000  0.363092
