Column 1: Wavelength
Column 2: T2_REF
   376.859985  0.065713
   381.869995  0.059005
   386.880005  0.052137
   391.890015  0.046156
   396.890015  0.040870
   401.899994  0.036545
   406.910004  0.032816
   411.920013  0.029822
   416.929993  0.027415
   421.940002  0.025493
   426.950012  0.023961
   431.959991  0.022798
   436.959991  0.021844
   441.970001  0.021053
   446.980011  0.020527
   451.989990  0.020080
   457.000000  0.019734
   462.010010  0.019485
   467.019989  0.019333
   472.019989  0.019202
   477.029999  0.019106
   482.040009  0.019100
   487.049988  0.019100
   492.059998  0.019104
   497.070007  0.019179
   502.079987  0.019303
   507.089996  0.019489
   512.090027  0.019840
   517.099976  0.020289
   522.109985  0.020799
   527.119995  0.021512
   532.130005  0.022399
   537.140015  0.023653
   542.150024  0.025159
   547.150024  0.027024
   552.159973  0.029743
   557.169983  0.033037
   562.179993  0.037376
   567.190002  0.043356
   572.200012  0.051983
   577.210022  0.063982
   582.219971  0.081246
   587.219971  0.104116
   592.229980  0.135257
   597.239990  0.172906
   602.250000  0.215125
   607.260010  0.257491
   612.270020  0.297679
   617.280029  0.332353
   622.280029  0.359551
   627.289978  0.381790
   632.299988  0.399553
   637.309998  0.412942
   642.320007  0.423118
   647.330017  0.430117
   652.340027  0.438009
   657.349976  0.444274
   662.349976  0.449392
   667.359985  0.453296
   672.369995  0.455515
   677.380005  0.457683
   682.390015  0.460644
   687.400024  0.463790
   692.409973  0.467756
   697.409973  0.472784
   702.419983  0.478523
   707.429993  0.484230
   712.440002  0.490111
   717.450012  0.494254
   722.460022  0.501523
   727.469971  0.507804
   732.479980  0.514527
   737.479980  0.519531
   742.489990  0.523614
   747.500000  0.526356
   752.510010  0.528429
   757.520020  0.528586
   762.530029  0.532977
   767.539978  0.533137
   772.539978  0.533022
   777.549988  0.533687
   782.559998  0.534204
   787.570007  0.534767
   792.580017  0.535607
   797.590027  0.535949
   802.599976  0.536450
   807.609985  0.537165
   812.609985  0.536788
   817.619995  0.537198
   822.630005  0.538194
   827.640015  0.538638
   832.650024  0.539478
   837.659973  0.540238
   842.669983  0.540913
   847.669983  0.540929
   852.679993  0.541366
   857.690002  0.541696
   862.700012  0.541832
   867.710022  0.542462
   872.719971  0.542988
   877.729980  0.543305
   882.739990  0.543408
   887.739990  0.543999
   892.750000  0.543004
   897.760010  0.543014
   902.770020  0.543842
   907.780029  0.543412
   912.789978  0.543762
   917.799988  0.544581
   922.809998  0.544920
   927.809998  0.542185
   932.820007  0.540771
   937.830017  0.542192
   942.840027  0.541682
   947.849976  0.544688
   952.859985  0.542981
   957.869995  0.544366
   962.869995  0.544347
   967.880005  0.547885
   972.890015  0.546133
   977.900024  0.550883
   982.909973  0.549766
   987.919983  0.548985
   992.929993  0.538781
   997.940002  0.539896
  1002.940002  0.541150
  1007.950012  0.541987
  1012.960022  0.542415
  1017.969971  0.542956
  1022.979980  0.543811
  1027.989990  0.544920
  1033.000000  0.546103
  1038.000000  0.546935
  1043.010010  0.547468
  1048.020020  0.547922
  1053.030029  0.548446
  1058.040039  0.549056
  1063.050049  0.549506
  1068.060059  0.550068
  1073.069946  0.550385
  1078.069946  0.550436
  1083.079956  0.550330
  1088.089966  0.549852
  1093.099976  0.549154
  1098.109985  0.548032
  1103.119995  0.546701
  1108.130005  0.545432
  1113.130005  0.543613
  1118.140015  0.539329
  1123.150024  0.531458
  1128.160034  0.526953
  1133.170044  0.526571
  1138.180054  0.529417
  1143.189941  0.530434
  1148.199951  0.529364
  1153.199951  0.528555
  1158.209961  0.529582
  1163.219971  0.530955
  1168.229980  0.532031
  1173.239990  0.532975
  1178.250000  0.533904
  1183.260010  0.534926
  1188.260010  0.535981
  1193.270020  0.537309
  1198.280029  0.538490
  1203.290039  0.539339
  1208.300049  0.540036
  1213.310059  0.540989
  1218.319946  0.541849
  1223.329956  0.542772
  1228.329956  0.543627
  1233.339966  0.544683
  1238.349976  0.545654
  1243.359985  0.546232
  1248.369995  0.546600
  1253.380005  0.547024
  1258.390015  0.547435
  1263.390015  0.547619
  1268.400024  0.547269
  1273.410034  0.546846
  1278.420044  0.546886
  1283.430054  0.546735
  1288.439941  0.546601
  1293.449951  0.545973
  1298.459961  0.545005
  1303.459961  0.543838
  1308.469971  0.542590
  1313.479980  0.540929
  1318.489990  0.538955
  1323.500000  0.537100
  1328.510010  0.534437
  1333.520020  0.531244
  1338.520020  0.529628
  1343.530029  0.530198
  1448.719971  0.465045
  1453.719971  0.465716
  1458.729980  0.468558
  1463.739990  0.471009
  1468.750000  0.471414
  1473.760010  0.471267
  1478.770020  0.472381
  1483.780029  0.473732
  1488.780029  0.475861
  1493.790039  0.478429
  1498.800049  0.480888
  1503.810059  0.482926
  1508.819946  0.484846
  1513.829956  0.486638
  1518.839966  0.488340
  1523.849976  0.490017
  1528.849976  0.491560
  1533.859985  0.493054
  1538.869995  0.494553
  1543.880005  0.495792
  1548.890015  0.496967
  1553.900024  0.498294
  1558.910034  0.499524
  1563.910034  0.500686
  1568.920044  0.501827
  1573.930054  0.502488
  1578.939941  0.503052
  1583.949951  0.503671
  1588.959961  0.504377
  1593.969971  0.504965
  1598.979980  0.505035
  1603.979980  0.504593
  1608.989990  0.503544
  1614.000000  0.502323
  1619.010010  0.501434
  1624.020020  0.500005
  1629.030029  0.497429
  1634.040039  0.492222
  1639.040039  0.481729
  1644.050049  0.466971
  1649.060059  0.450018
  1654.069946  0.433636
  1659.079956  0.424369
  1664.089966  0.428836
  1669.099976  0.439752
  1674.109985  0.449520
  1679.109985  0.457216
  1684.119995  0.464869
  1689.130005  0.471822
  1694.140015  0.474738
  1699.150024  0.473659
  1704.160034  0.471943
  1709.170044  0.471257
  1714.170044  0.470855
  1719.180054  0.470530
  1724.189941  0.470591
  1729.199951  0.471859
  1734.209961  0.473956
  1739.219971  0.476634
  1744.229980  0.478925
  1749.239990  0.479898
  1754.239990  0.480620
  1759.250000  0.480756
  1764.260010  0.480888
  1769.270020  0.481214
  1774.280029  0.482075
  1779.290039  0.482379
  1784.300049  0.482460
  1789.300049  0.481680
  1794.310059  0.481676
  1799.319946  0.481091
  1959.599976  0.423324
  1964.609985  0.432155
  1969.619995  0.434451
  1974.630005  0.435681
  1979.630005  0.437012
  1984.640015  0.436658
  1989.650024  0.437500
  1994.660034  0.438478
  1999.670044  0.442629
  2004.680054  0.445396
  2009.689941  0.448146
  2014.699951  0.448227
  2019.699951  0.448446
  2024.709961  0.449410
  2029.719971  0.448324
  2034.729980  0.449411
  2039.739990  0.450750
  2044.750000  0.451457
  2049.760010  0.453178
  2054.760010  0.453938
  2059.770020  0.454779
  2064.780029  0.452784
  2069.790039  0.450623
  2074.800049  0.446661
  2079.810059  0.443795
  2084.820068  0.444626
  2089.830078  0.445301
  2094.830078  0.446406
  2099.840088  0.444936
  2104.850098  0.440493
  2109.860107  0.432206
  2114.870117  0.422969
  2119.879883  0.412411
  2124.889893  0.400807
  2129.889893  0.392137
  2134.899902  0.394116
  2139.909912  0.404733
  2144.919922  0.411341
  2149.929932  0.409257
  2154.939941  0.402590
  2159.949951  0.406563
  2164.959961  0.417637
  2169.959961  0.421135
  2174.969971  0.417852
  2179.979980  0.414816
  2184.989990  0.417196
  2190.000000  0.424116
  2195.010010  0.426427
  2200.020020  0.425780
  2205.020020  0.424376
  2210.030029  0.421241
  2215.040039  0.411757
  2220.050049  0.399142
  2225.060059  0.382595
  2230.070068  0.367662
  2235.080078  0.350107
  2240.090088  0.326269
  2245.090088  0.313055
  2250.100098  0.306537
  2255.110107  0.306941
  2260.120117  0.317588
  2265.129883  0.322807
  2270.139893  0.327389
  2275.149902  0.334039
  2280.149902  0.339130
  2285.159912  0.339492
  2290.169922  0.338872
  2295.179932  0.337675
  2300.189941  0.332931
  2305.199951  0.330409
  2310.209961  0.329732
  2315.219971  0.328799
  2320.219971  0.318284
  2325.229980  0.313826
  2330.239990  0.312890
  2335.250000  0.311324
  2340.260010  0.320164
  2345.270020  0.323601
  2350.280029  0.327163
  2355.280029  0.326001
  2360.290039  0.325415
  2365.300049  0.325049
  2370.310059  0.333294
  2375.320068  0.337299
  2380.330078  0.337188
  2385.340088  0.333239
  2390.350098  0.333846
  2395.350098  0.330122
  2400.360107  0.336267
  2405.370117  0.346633
  2410.379883  0.351422
  2415.389893  0.335879
  2420.399902  0.329617
  2425.409912  0.339626
  2430.409912  0.323951
  2435.419922  0.307652
  2440.429932  0.295977
  2445.439941  0.287900
  2450.449951  0.316072
  2455.459961  0.332280
  2460.469971  0.332656
  2465.479980  0.351346
  2470.479980  0.348754
  2475.489990  0.368052
  2480.500000  0.377441
